-26
-25
-23
-29
-24
-24
-25
-22
-24
-22
-22
-23
-24
-20
-23
-20
-19
-20
-21
-20
-18
-21
-19
-21
-21
-18
-16
-15
-15
-16
-13
-7
-8
-8
-4
-1
-5
-1
-5
-8
-8
-8
-10
-13
-12
-11
-12
-11
-13
-11
-15
-11
-8
-11
-13
-13
-16
-22
-24
-19
-1
17
49
89
133
186
230
243
204
138
76
29
2
-18
-29
-33
-35
-36
-33
-31
-31
-32
-29
-30
-26
-28
-27
-29
-27
-23
-22
-21
-20
-18
-18
-15
-17
-13
-12
-10
-8
-7
-6
-2
2
4
1
5
5
7
7
6
7
11
12
17
14
20
16
17
21
21
19
18
18
17
19
16
12
12
9
3
-1
-3
-6
-10
-15
-18
-20
-22
-26
-25
-31
-29
-32
-32
-34
-32
-35
-36
-34
-37
-28
-32
-30
-31
-32
-30
-30
-30
-30
-30
-28
-28
-27
-26
-28
-28
-25
-27
-29
-25
-27
-22
-28
-31
-28
-29
-27
-28
-24
-26
-27
-26
-26
-24
-26
-24
-24
-25
-25
-24
-24
-23
-21
-24
-24
-19
-21
-24
-17
-18
-17
-18
-17
-15
-16
-11
-14
-12
-12
-11
-14
-12
-10
-13
-11
-16
-11
-11
-10
-11
-10
-6
-7
-7
-5
-1
-2
2
3
4
3
1
-2
-4
-9
-6
-7
-9
-8
-10
-9
-8
-7
-8
-9
-10
-11
-9
-13
-16
-17
-18
-15
-3
14
40
75
118
165
213
248
227
171
103
52
19
-10
-22
-29
-30
-27
-33
-30
-29
-31
-34
-28
-32
-28
-28
-26
-27
-25
-23
-20
-23
-19
-20
-18
-18
-17
-14
-15
-12
-8
-9
-10
-7
-7
-4
-1
-1
0
4
4
5
5
5
3
11
9
10
12
14
13
13
13
17
16
11
10
11
7
8
6
0
-5
-9
-13
-15
-17
-25
-20
-28
-28
-29
-33
-35
-35
-35
-35
-38
-37
-36
-36
-38
-36
-33
-35
-30
-31
-32
-32
-29
-28
-29
-31
-27
-29
-29
-26
-26
-26
-27
-26
-26
-28
-23
-27
-25
-26
-25
-22
-25
-23
-27
-25
-22
-25
-21
-25
-20
-22
-23
-19
-21
-20
-20
-21
-21
-17
-18
-16
-20
-20
-17
-19
-18
-18
-16
-17
-16
-16
-13
-14
-15
-15
-11
-13
-14
-15
-12
-11
-11
-12
-10
-9
-6
-11
-6
-8
-8
-5
-1
0
3
2
4
-1
-3
-6
-5
-7
-8
-9
-7
-9
-8
-11
-10
-8
-9
-6
-7
-8
-8
-13
-17
-14
-17
-5
12
37
70
110
162
208
241
233
179
113
57
18
-5
-20
-27
-31
-34
-34
-33
-33
-31
-33
-28
-30
-28
-28
-28
-24
-23
-25
-26
-22
-20
-18
-20
-17
-16
-17
-13
-13
-10
-8
-8
-5
-5
-1
-2
-2
3
1
4
6
9
9
9
13
16
15
16
15
14
14
16
17
14
16
11
12
8
5
6
2
-4
-7
-13
-14
-17
-22
-25
-25
-26
-32
-33
-34
-35
-35
-35
-38
-38
-37
-36
-36
-37
-36
-33
-35
-33
-29
-27
-29
-27
-28
-29
-25
-27
-29
-30
-29
-27
-29
-28
-29
-29
-31
-27
-27
-28
-25
-24
-26
-30
-29
-25
-27
-26
-27
-24
-24
-22
-25
-23
-23
-21
-23
-21
-23
-23
-23
-19
-20
-21
-20
-20
-20
-20
-19
-20
-19
-18
-16
-20
-18
-17
-17
-19
-21
-19
-18
-20
-21
-19
-17
-17
-16
-16
-16
-13
-13
-11
-13
-13
-8
-7
-8
-6
-2
-5
-3
-4
-9
-7
-14
-13
-13
-15
-15
-13
-9
-10
-10
-10
-10
-12
-11
-12
-12
-16
-19
-21
-19
-7
9
39
73
119
171
224
257
232
169
102
51
12
-13
-23
-31
-37
-35
-36
-39
-39
-37
-34
-33
-34
-32
-32
-29
-29
-25
-25
-26
-23
-20
-21
-19
-17
-18
-17
-13
-15
-13
-9
-10
-11
-6
-8
-2
-2
0
1
2
2
3
9
7
8
9
13
13
11
12
13
14
12
13
10
14
7
7
4
1
-2
-4
-9
-13
-19
-22
-23
-29
-30
-26
-31
-35
-35
-36
-38
-36
-40
-40
-39
-38
-40
-39
-35
-37
-35
-32
-33
-32
-30
-32
-33
-31
-33
-36
-32
-32
-31
-33
-36
-31
-32
-33
-30
-31
-33
-32
-28
-29
-30
-28
-27
-25
-25
-25
-23
-25
-23
-23
-23
-20
-23
-20
-17
-20
-20
-20
-19
-18
-20
-19
-16
-19
-14
-18
-13
-17
-14
-17
-14
-12
-14
-13
-12
-15
-12
-10
-13
-12
-12
-8
-8
-8
-6
-5
-4
-5
-7
-3
-1
4
7
7
6
6
4
3
3
-3
1
0
-5
0
-3
-3
-5
0
0
-2
-7
-6
-3
-4
-9
-12
-16
-17
-3
14
40
71
117
168
223
262
254
197
128
63
23
-4
-16
-27
-29
-25
-26
-26
-24
-24
-22
-22
-25
-25
-22
-22
-22
-21
-17
-18
-18
-14
-11
-11
-10
-8
-6
-2
-3
-3
4
1
3
4
8
3
9
8
12
12
12
18
14
14
18
18
15
20
19
19
22
22
23
20
20
22
18
17
15
13
7
3
1
-4
-8
-11
-12
-15
-17
-21
-22
-24
-24
-26
-28
-27
-27
-30
-27
-31
-28
-29
-28
-31
-28
-29
-23
-27
-25
-23
-23
-24
-23
-23
-23
-22
-19
-22
-24
-23
-22
-21
-22
-22
-20
-19
-22
-21
-23
-21
-20
-19
-21
-21
-17
-18
-19
-20
-19
-21
-19
-18
-19
-17
-18
-17
-13
-15
-15
-14
-13
-12
-13
-12
-12
-11
-9
-9
-10
-7
-8
-8
-8
-8
-10
-9
-9
-8
-9
-8
-7
-4
-5
-5
-5
-5
2
0
4
2
4
3
-1
-5
-7
-4
-8
-6
-8
-9
-8
-9
-9
-9
-9
-4
-7
-7
-9
-12
-16
-20
-17
-9
12
31
68
107
155
212
248
245
194
122
68
20
-2
-18
-25
-31
-29
-28
-26
-27
-29
-24
-25
-28
-22
-20
-21
-20
-25
-19
-21
-18
-16
-17
-14
-14
-13
-11
-11
-8
-9
-4
-4
1
-2
-1
4
3
5
5
7
7
9
10
13
12
16
14
16
16
16
17
16
17
16
16
15
13
10
8
6
3
-2
-7
-13
-15
-17
-22
-26
-27
-28
-28
-34
-34
-35
-34
-38
-39
-38
-40
-38
-41
-34
-35
-38
-36
-36
-35
-36
-37
-37
-32
-33
-30
-30
-31
-29
-27
-31
-30
-32
-30
-29
-29
-31
-30
-29
-28
-27
-31
-28
-29
-26
-30
-33
-28
-27
-26
-27
-25
-28
-25
-26
-27
-25
-26
-27
-24
-25
-21
-25
-27
-26
-25
-26
-24
-19
-25
-24
-20
-22
-18
-21
-20
-18
-21
-18
-20
-21
-22
-16
-18
-13
-14
-13
-10
-14
-10
-10
-9
-10
0
0
-2
-3
-1
-6
-4
-8
-9
-11
-12
-11
-11
-13
-10
-10
-13
-11
-11
-13
-13
-17
-19
-25
-20
-15
1
20
50
87
131
183
226
243
204
142
82
35
6
-14
-27
-32
-32
-33
-33
-31
-33
-32
-30
-33
-33
-30
-31
-27
-28
-29
-24
-21
-20
-22
-21
-18
-20
-20
-20
-17
-15
-13
-12
-11
-8
-9
-6
-5
-3
0
4
8
2
5
10
10
10
8
13
10
12
14
12
11
14
13
15
13
11
10
5
3
1
-1
-6
-9
-12
-14
-20
-18
-27
-23
-27
-26
-29
-30
-30
-31
-36
-36
-35
-33
-34
-31
-33
-32
-34
-29
-33
-31
-28
-28
-24
-27
-24
-21
-23
-21
-19
-21
-19
-22
-20
-23
-19
-22
-22
-23
-27
-22
-23
-21
-22
-23
-24
-24
-25
-25
-21
-24
-20
-25
-21
-20
-20
-20
-23
-19
-20
-21
-18
-17
-18
-20
-21
-19
-18
-18
-18
-18
-18
-13
-18
-14
-14
-17
-18
-17
-15
-14
-16
-15
-15
-15
-12
-8
-9
-7
-7
-9
-8
-5
-4
1
2
-1
-2
-4
-4
-5
-4
-8
-7
-9
-5
-10
-10
-8
-7
-8
-5
-5
-9
-6
-16
-17
-19
-12
-7
11
36
69
109
157
206
239
236
185
120
66
25
-4
-16
-27
-31
-31
-32
-32
-31
-31
-33
-30
-30
-30
-28
-27
-27
-26
-26
-23
-23
-20
-22
-18
-19
-18
-14
-12
-14
-12
-8
-10
-7
-5
-6
-3
-3
5
3
3
8
6
8
8
7
9
7
11
10
10
10
9
12
9
9
9
7
6
5
2
1
-9
-8
-12
-17
-20
-23
-24
-28
-32
-29
-36
-36
-37
-38
-37
-39
-41
-41
-40
-39
-41
-36
-34
-34
-36
-31
-31
-33
-32
-30
-33
-29
-29
-30
-25
-28
-27
-29
-29
-29
-30
-30
-28
-32
-30
-27
-29
-26
-26
-29
-31
-28
-29
-29
-30
-28
-29
-29
-29
-29
-25
-26
-26
-24
-25
-23
-23
-22
-23
-26
-20
-23
-23
-21
-20
-21
-21
-16
-20
-20
-19
-20
-21
-16
-19
-16
-17
-17
-15
-18
-16
-15
-17
-11
-13
-12
-14
-12
-13
-8
-8
-5
-2
1
-3
-3
-2
-4
-9
-14
-10
-10
-10
-12
-12
-12
-11
-7
-9
-9
-10
-12
-14
-15
-17
-21
-14
-9
12
38
73
116
166
220
252
243
188
118
59
22
-1
-18
-27
-28
-31
-30
-35
-32
-32
-33
-32
-30
-30
-31
-31
-31
-26
-26
-25
-22
-25
-19
-16
-14
-13
-10
-10
-11
-11
-8
-9
-6
-9
-4
-5
-4
1
1
4
7
4
8
7
8
9
14
14
14
16
14
14
15
15
16
12
12
7
8
6
4
4
-4
-9
-8
-16
-21
-20
-26
-25
-28
-30
-29
-32
-33
-32
-33
-33
-33
-34
-35
-33
-35
-31
-35
-30
-34
-33
-32
-31
-29
-31
-31
-29
-27
-30
-32
-31
-31
-27
-29
-31
-30
-33
-32
-29
-28
-28
-28
-28
-25
-28
-26
-27
-26
-25
-26
-25
-23
-20
-21
-24
-22
-22
-23
-22
-23
-23
-21
-21
-20
-20
-19
-18
-18
-22
-23
-20
-18
-16
-18
-19
-16
-16
-15
-16
-17
-14
-14
-16
-12
-10
-11
-9
-12
-6
-6
-7
-4
0
-3
1
2
-2
-1
-4
-6
-8
-7
-7
-9
-7
-7
-9
-6
-11
-9
-7
-5
-5
-5
-6
-13
-18
-21
-16
-4
19
47
89
133
189
240
262
227
155
89
38
4
-15
-23
-31
-34
-31
-31
-33
-32
-30
-30
-28
-29
-29
-29
-26
-24
-22
-22
-18
-18
-17
-12
-16
-12
-10
-7
-11
-7
-11
-6
-1
1
1
2
5
3
10
11
9
11
12
15
19
19
18
20
19
24
21
21
22
23
21
24
17
18
15
16
12
5
5
-1
-4
-10
-14
-19
-20
-25
-31
-30
-33
-37
-37
-39
-34
-38
-34
-34
-34
-36
-33
-28
-33
-33
-30
-31
-29
-27
-28
-29
-27
-25
-30
-28
-26
-26
-27
-24
-24
-24
-26
-24
-24
-24
-23
-23
-20
-22
-23
-23
-21
-21
-21
-23
-20
-22
-21
-19
-20
-18
-20
-17
-15
-16
-16
-13
-13
-13
-14
-12
-13
-12
-13
-11
-8
-12
-11
-11
-10
-9
-8
-7
-7
-5
-4
-5
1
-3
4
6
6
8
4
4
1
0
1
-4
-4
0
-5
0
-3
2
-5
2
3
-2
1
0
-5
-13
-17
-14
-6
9
33
63
108
158
211
256
262
210
138
73
27
-2
-16
-24
-27
-28
-27
-29
-26
-26
-26
-26
-24
-24
-25
-21
-20
-19
-18
-18
-18
-16
-15
-11
-13
-8
-8
-8
-5
-6
-2
-3
-2
1
4
5
7
10
12
12
14
16
20
21
21
20
26
25
24
28
26
28
28
28
27
25
23
22
19
16
11
7
5
0
-4
-11
-15
-17
-21
-21
-24
-27
-27
-26
-28
-34
-31
-33
-33
-31
-35
-33
-30
-31
-30
-26
-34
-30
-32
-30
-33
-32
-30
-28
-24
-25
-29
-28
-26
-27
-27
-26
-26
-25
-26
-27
-25
-26
-28
-27
-25
-25
-23
-27
-24
-22
-23
-25
-22
-22
-19
-21
-20
-18
-19
-19
-16
-19
-20
-16
-18
-18
-18
-19
-18
-15
-16
-17
-16
-17
-15
-14
-12
-13
-12
-11
-11
-11
-8
-6
-7
-3
-7
-4
-6
-9
-11
-10
-11
-14
-15
-14
-14
-13
-12
-13
-14
-11
-13
-11
-14
-13
-17
-21
-23
-20
-10
12
35
67
113
165
218
250
225
169
99
44
9
-15
-27
-32
-36
-38
-37
-34
-35
-37
-35
-36
-34
-30
-33
-31
-29
-26
-27
-27
-24
-25
-21
-20
-16
-18
-17
-12
-14
-13
-15
-11
-4
-9
-5
-3
-1
-2
0
2
4
7
6
11
10
13
11
11
10
9
14
14
17
13
11
13
11
11
8
4
-1
-7
-7
-11
-16
-19
-20
-22
-27
-30
-31
-32
-35
-38
-38
-39
-40
-42
-41
-39
-39
-37
-36
-39
-39
-36
-37
-36
-34
-33
-32
-33
-32
-31
-35
-34
-31
-34
-31
-31
-28
-32
-29
-28
-28
-29
-31
-24
-26
-24
-27
-23
-24
-26
-26
-24
-22
-24
-23
-27
-26
-22
-25
-20
-23
-24
-23
-22
-22
-21
-23
-20
-21
-18
-16
-20
-23
-21
-21
-20
-20
-19
-18
-18
-15
-15
-15
-13
-12
-16
-10
-9
-6
-6
-3
-5
-6
-9
-7
-10
-9
-11
-13
-14
-12
-14
-15
-11
-11
-10
-12
-12
-11
-12
-17
-19
-22
-23
-17
-2
19
50
89
136
187
231
243
204
142
80
35
6
-16
-24
-28
-33
-34
-32
-31
-30
-32
-29
-30
-28
-31
-27
-26
-27
-26
-26
-25
-20
-23
-19
-19
-16
-12
-11
-10
-8
-7
-6
-6
-5
0
-4
4
2
3
3
6
6
10
10
10
11
13
17
16
18
16
17
15
16
16
12
17
13
9
7
3
0
-5
-9
-10
-14
-15
-19
-21
-24
-29
-31
-29
-30
-32
-32
-37
-35
-34
-37
-37
-38
-36
-37
-35
-32
-31
-31
-31
-32
-29
-30
-28
-27
-25
-28
-26
-29
-26
-28
-26
-27
-31
-31
-28
-29
-28
-29
-27
-26
-26
-27
-24
-25
-29
-22
-22
-25
-22
-22
-23
-27
-25
-21
-22
-20
-21
-21
-22
-19
-21
-21
-18
-18
-21
-19
-14
-14
-15
-14
-13
-15
-14
-13
-13
-12
-11
-12
-17
-12
-11
-13
-8
-13
-9
-8
-11
-7
-5
-4
2
4
3
0
-4
-1
-5
-5
-7
-8
-9
-9
-8
-7
-8
-7
-9
-6
-6
-10
-10
-11
-13
-18
-21
-21
-11
10
35
70
113
163
211
242
225
170
103
52
17
-7
-24
-30
-33
-33
-33
-30
-32
-31
-32
-33
-31
-31
-29
-25
-26
-26
-20
-24
-22
-22
-21
-21
-17
-16
-15
-11
-10
-10
-8
-8
-3
-4
0
-3
1
-1
4
7
9
6
7
9
12
11
16
15
15
15
15
16
17
16
16
14
12
14
12
10
6
4
-3
-5
-8
-13
-16
-15
-16
-23
-23
-26
-31
-28
-29
-29
-30
-31
-30
-32
-34
-35
-32
-30
-30
-30
-28
-27
-27
-24
-26
-26
-27
-23
-25
-22
-23
-25
-24
-23
-23
-27
-26
-24
-23
-26
-23
-25
-25
-22
-21
-23
-23
-23
-20
-23
-20
-20
-16
-18
-18
-19
-20
-21
-20
-20
-19
-17
-19
-18
-20
-19
-15
-13
-17
-14
-17
-16
-14
-14
-11
-12
-13
-9
-11
-11
-11
-10
-12
-12
-13
-12
-11
-12
-13
-13
-11
-13
-9
-8
-9
-6
-5
0
-1
3
2
2
0
-2
-6
-11
-9
-13
-9
-9
-13
-8
-12
-11
-11
-10
-12
-10
-12
-13
-16
-20
-23
-17
-9
8
31
62
103
150
204
241
236
189
119
63
26
-3
-16
-28
-32
-32
-34
-32
-30
-32
-32
-31
-31
-27
-27
-29
-23
-22
-23
-21
-21
-21
-18
-18
-15
-16
-13
-15
-12
-10
-10
-11
-5
-6
-5
-2
-2
-2
4
4
4
8
6
5
8
12
13
14
12
14
13
11
14
15
13
13
12
11
10
3
-1
-4
-4
-9
-10
-12
-16
-20
-23
-25
-27
-32
-29
-29
-33
-31
-31
-35
-33
-35
-33
-34
-31
-31
-32
-29
-30
-29
-31
-29
-27
-28
-29
-24
-27
-24
-25
-24
-26
-25
-24
-24
-26
-23
-23
-24
-25
-22
-24
-27
-22
-21
-26
-23
-26
-24
-19
-21
-23
-21
-18
-20
-22
-21
-21
-22
-21
-19
-21
-21
-19
-22
-21
-24
-21
-18
-18
-21
-18
-18
-17
-15
-18
-19
-15
-19
-18
-15
-15
-14
-12
-12
-13
-12
-16
-14
-11
-14
-15
-13
-14
-13
-11
-7
-7
-7
-4
-3
0
-1
6
6
2
4
-1
-2
-5
-5
-8
-8
-10
-11
-9
-8
-9
-5
-7
-10
-9
-9
-11
-15
-18
-22
-21
-17
0
23
52
92
140
191
233
244
199
137
78
32
3
-19
-29
-33
-35
-34
-35
-35
-34
-35
-34
-35
-32
-30
-30
-31
-30
-28
-26
-22
-23
-20
-23
-20
-18
-16
-16
-13
-12
-12
-11
-9
-9
-6
-3
-4
-4
0
1
3
5
4
9
8
5
8
11
10
14
14
13
14
15
15
13
13
11
8
5
6
1
-4
-7
-11
-13
-14
-18
-17
-23
-24
-29
-28
-32
-36
-39
-40
-39
-41
-36
-36
-36
-38
-38
-39
-36
-37
-35
-35
-35
-33
-33
-32
-29
-28
-31